# wavelength[A] tau flux flux_error
1.150000e+03 1.556425e-02 9.845562e-01 9.922481e-02
1.150010e+03 1.556466e-02 9.845558e-01 9.922479e-02
1.150020e+03 1.556506e-02 9.845554e-01 9.922477e-02
1.150030e+03 1.556547e-02 9.845550e-01 9.922475e-02
1.150040e+03 1.556588e-02 9.845546e-01 9.922473e-02
1.150050e+03 1.556628e-02 9.845542e-01 9.922471e-02
1.150060e+03 1.556669e-02 9.845538e-01 9.922469e-02
1.150070e+03 1.556709e-02 9.845534e-01 9.922467e-02
1.150080e+03 1.556750e-02 9.845530e-01 9.922465e-02
1.150090e+03 1.556791e-02 9.845526e-01 9.922463e-02
1.150100e+03 1.556831e-02 9.845522e-01 9.922461e-02
1.150110e+03 1.556872e-02 9.845518e-01 9.922459e-02
1.150120e+03 1.556912e-02 9.845514e-01 9.922457e-02
1.150130e+03 1.556953e-02 9.845510e-01 9.922455e-02
1.150140e+03 1.556994e-02 9.845506e-01 9.922453e-02
1.150150e+03 1.557034e-02 9.845502e-01 9.922451e-02
1.150160e+03 1.557075e-02 9.845498e-01 9.922449e-02
1.150170e+03 1.557115e-02 9.845494e-01 9.922447e-02
1.150180e+03 1.557156e-02 9.845490e-01 9.922445e-02
1.150190e+03 1.557197e-02 9.845486e-01 9.922442e-02
1.150200e+03 1.557237e-02 9.845482e-01 9.922440e-02
1.150210e+03 1.557278e-02 9.845478e-01 9.922438e-02
1.150220e+03 1.557319e-02 9.845474e-01 9.922436e-02
1.150230e+03 1.557359e-02 9.845470e-01 9.922434e-02
1.150240e+03 1.557400e-02 9.845466e-01 9.922432e-02
1.150250e+03 1.557440e-02 9.845462e-01 9.922430e-02
1.150260e+03 1.557481e-02 9.845458e-01 9.922428e-02
1.150270e+03 1.557522e-02 9.845454e-01 9.922426e-02
1.150280e+03 1.557562e-02 9.845450e-01 9.922424e-02
1.150290e+03 1.557603e-02 9.845446e-01 9.922422e-02
1.150300e+03 1.557644e-02 9.845443e-01 9.922420e-02
1.150310e+03 1.557684e-02 9.845439e-01 9.922418e-02
1.150320e+03 1.557725e-02 9.845435e-01 9.922416e-02
1.150330e+03 1.557765e-02 9.845431e-01 9.922414e-02
1.150340e+03 1.557806e-02 9.845427e-01 9.922412e-02
1.150350e+03 1.557847e-02 9.845423e-01 9.922410e-02
1.150360e+03 1.557887e-02 9.845419e-01 9.922408e-02
1.150370e+03 1.557928e-02 9.845415e-01 9.922406e-02
1.150380e+03 1.557969e-02 9.845411e-01 9.922404e-02
1.150390e+03 1.558009e-02 9.845407e-01 9.922402e-02
1.150400e+03 1.558050e-02 9.845403e-01 9.922400e-02
1.150410e+03 1.558090e-02 9.845399e-01 9.922398e-02
1.150420e+03 1.558131e-02 9.845395e-01 9.922396e-02
1.150430e+03 1.558172e-02 9.845390e-01 9.922394e-02
1.150440e+03 1.558212e-02 9.845386e-01 9.922392e-02
1.150450e+03 1.558253e-02 9.845382e-01 9.922390e-02
1.150460e+03 1.558294e-02 9.845378e-01 9.922388e-02
1.150470e+03 1.558334e-02 9.845374e-01 9.922386e-02
1.150480e+03 1.558375e-02 9.845370e-01 9.922384e-02
1.150490e+03 1.558415e-02 9.845366e-01 9.922382e-02
1.150500e+03 1.558456e-02 9.845362e-01 9.922380e-02
1.150510e+03 1.558497e-02 9.845358e-01 9.922378e-02
1.150520e+03 1.558537e-02 9.845354e-01 9.922376e-02
1.150530e+03 1.558578e-02 9.845350e-01 9.922374e-02
1.150540e+03 1.558619e-02 9.845346e-01 9.922372e-02
1.150550e+03 1.558659e-02 9.845342e-01 9.922370e-02
1.150560e+03 1.558700e-02 9.845338e-01 9.922368e-02
1.150570e+03 1.558741e-02 9.845334e-01 9.922366e-02
1.150580e+03 1.558781e-02 9.845330e-01 9.922364e-02
1.150590e+03 1.558822e-02 9.845326e-01 9.922362e-02
1.150600e+03 1.558863e-02 9.845322e-01 9.922360e-02
1.150610e+03 1.558903e-02 9.845318e-01 9.922358e-02
1.150620e+03 1.558944e-02 9.845314e-01 9.922356e-02
1.150630e+03 1.558984e-02 9.845310e-01 9.922354e-02
1.150640e+03 1.559025e-02 9.845306e-01 9.922352e-02
1.150650e+03 1.559066e-02 9.845302e-01 9.922350e-02
1.150660e+03 1.559106e-02 9.845298e-01 9.922348e-02
1.150670e+03 1.559147e-02 9.845294e-01 9.922346e-02
1.150680e+03 1.559188e-02 9.845290e-01 9.922344e-02
1.150690e+03 1.559228e-02 9.845286e-01 9.922342e-02
1.150700e+03 1.559269e-02 9.845282e-01 9.922340e-02
1.150710e+03 1.559310e-02 9.845278e-01 9.922338e-02
1.150720e+03 1.559350e-02 9.845274e-01 9.922336e-02
1.150730e+03 1.559391e-02 9.845270e-01 9.922334e-02
1.150740e+03 1.559432e-02 9.845266e-01 9.922332e-02
1.150750e+03 1.559472e-02 9.845262e-01 9.922330e-02
1.150760e+03 1.559513e-02 9.845258e-01 9.922328e-02
1.150770e+03 1.559554e-02 9.845254e-01 9.922326e-02
1.150780e+03 1.559594e-02 9.845250e-01 9.922324e-02
1.150790e+03 1.559635e-02 9.845246e-01 9.922322e-02
1.150800e+03 1.559676e-02 9.845242e-01 9.922320e-02
1.150810e+03 1.559716e-02 9.845238e-01 9.922317e-02
1.150820e+03 1.559757e-02 9.845234e-01 9.922315e-02
1.150830e+03 1.559798e-02 9.845230e-01 9.922313e-02
1.150840e+03 1.559838e-02 9.845226e-01 9.922311e-02
1.150850e+03 1.559879e-02 9.845222e-01 9.922309e-02
1.150860e+03 1.559920e-02 9.845218e-01 9.922307e-02
1.150870e+03 1.559960e-02 9.845214e-01 9.922305e-02
1.150880e+03 1.560001e-02 9.845210e-01 9.922303e-02
1.150890e+03 1.560042e-02 9.845206e-01 9.922301e-02
1.150900e+03 1.560082e-02 9.845202e-01 9.922299e-02
1.150910e+03 1.560123e-02 9.845198e-01 9.922297e-02
1.150920e+03 1.560164e-02 9.845194e-01 9.922295e-02
1.150930e+03 1.560204e-02 9.845190e-01 9.922293e-02
1.150940e+03 1.560245e-02 9.845186e-01 9.922291e-02
1.150950e+03 1.560286e-02 9.845182e-01 9.922289e-02
1.150960e+03 1.560326e-02 9.845178e-01 9.922287e-02
1.150970e+03 1.560367e-02 9.845174e-01 9.922285e-02
1.150980e+03 1.560408e-02 9.845170e-01 9.922283e-02
1.150990e+03 1.560448e-02 9.845166e-01 9.922281e-02
1.151000e+03 1.560489e-02 9.845162e-01 9.922279e-02
1.151010e+03 1.560530e-02 9.845158e-01 9.922277e-02
1.151020e+03 1.560570e-02 9.845154e-01 9.922275e-02
1.151030e+03 1.560611e-02 9.845150e-01 9.922273e-02
1.151040e+03 1.560652e-02 9.845146e-01 9.922271e-02
1.151050e+03 1.560692e-02 9.845142e-01 9.922269e-02
1.151060e+03 1.560733e-02 9.845138e-01 9.922267e-02
1.151070e+03 1.560774e-02 9.845134e-01 9.922265e-02
1.151080e+03 1.560814e-02 9.845130e-01 9.922263e-02
1.151090e+03 1.560855e-02 9.845126e-01 9.922261e-02
1.151100e+03 1.560896e-02 9.845122e-01 9.922259e-02
1.151110e+03 1.560936e-02 9.845118e-01 9.922257e-02
1.151120e+03 1.560977e-02 9.845114e-01 9.922255e-02
1.151130e+03 1.561018e-02 9.845110e-01 9.922253e-02
1.151140e+03 1.561058e-02 9.845106e-01 9.922251e-02
1.151150e+03 1.561099e-02 9.845102e-01 9.922249e-02
1.151160e+03 1.561140e-02 9.845098e-01 9.922247e-02
1.151170e+03 1.561180e-02 9.845094e-01 9.922245e-02
1.151180e+03 1.561221e-02 9.845090e-01 9.922243e-02
1.151190e+03 1.561262e-02 9.845086e-01 9.922241e-02
1.151200e+03 1.561303e-02 9.845082e-01 9.922239e-02
1.151210e+03 1.561343e-02 9.845078e-01 9.922237e-02
1.151220e+03 1.561384e-02 9.845074e-01 9.922235e-02
1.151230e+03 1.561425e-02 9.845070e-01 9.922233e-02
1.151240e+03 1.561465e-02 9.845066e-01 9.922231e-02
1.151250e+03 1.561506e-02 9.845062e-01 9.922229e-02
1.151260e+03 1.561547e-02 9.845058e-01 9.922227e-02
1.151270e+03 1.561587e-02 9.845054e-01 9.922225e-02
1.151280e+03 1.561628e-02 9.845050e-01 9.922223e-02
1.151290e+03 1.561669e-02 9.845046e-01 9.922221e-02
1.151300e+03 1.561709e-02 9.845042e-01 9.922219e-02
1.151310e+03 1.561750e-02 9.845038e-01 9.922217e-02
1.151320e+03 1.561791e-02 9.845034e-01 9.922215e-02
1.151330e+03 1.561831e-02 9.845030e-01 9.922213e-02
1.151340e+03 1.561872e-02 9.845026e-01 9.922211e-02
1.151350e+03 1.561913e-02 9.845022e-01 9.922209e-02
1.151360e+03 1.561954e-02 9.845018e-01 9.922206e-02
1.151370e+03 1.561994e-02 9.845014e-01 9.922204e-02
1.151380e+03 1.562035e-02 9.845010e-01 9.922202e-02
1.151390e+03 1.562076e-02 9.845006e-01 9.922200e-02
1.151400e+03 1.562116e-02 9.845002e-01 9.922198e-02
1.151410e+03 1.562157e-02 9.844998e-01 9.922196e-02
1.151420e+03 1.562198e-02 9.844994e-01 9.922194e-02
1.151430e+03 1.562238e-02 9.844990e-01 9.922192e-02
1.151440e+03 1.562279e-02 9.844986e-01 9.922190e-02
1.151450e+03 1.562320e-02 9.844982e-01 9.922188e-02
1.151460e+03 1.562361e-02 9.844978e-01 9.922186e-02
1.151470e+03 1.562401e-02 9.844974e-01 9.922184e-02
1.151480e+03 1.562442e-02 9.844970e-01 9.922182e-02
1.151490e+03 1.562483e-02 9.844966e-01 9.922180e-02
1.151500e+03 1.562523e-02 9.844962e-01 9.922178e-02
1.151510e+03 1.562564e-02 9.844958e-01 9.922176e-02
1.151520e+03 1.562605e-02 9.844954e-01 9.922174e-02
1.151530e+03 1.562646e-02 9.844950e-01 9.922172e-02
1.151540e+03 1.562686e-02 9.844946e-01 9.922170e-02
1.151550e+03 1.562727e-02 9.844942e-01 9.922168e-02
1.151560e+03 1.562768e-02 9.844938e-01 9.922166e-02
1.151570e+03 1.562808e-02 9.844934e-01 9.922164e-02
1.151580e+03 1.562849e-02 9.844930e-01 9.922162e-02
1.151590e+03 1.562890e-02 9.844926e-01 9.922160e-02
1.151600e+03 1.562931e-02 9.844922e-01 9.922158e-02
1.151610e+03 1.562971e-02 9.844918e-01 9.922156e-02
1.151620e+03 1.563012e-02 9.844914e-01 9.922154e-02
1.151630e+03 1.563053e-02 9.844910e-01 9.922152e-02
1.151640e+03 1.563093e-02 9.844906e-01 9.922150e-02
1.151650e+03 1.563134e-02 9.844902e-01 9.922148e-02
1.151660e+03 1.563175e-02 9.844898e-01 9.922146e-02
1.151670e+03 1.563216e-02 9.844894e-01 9.922144e-02
1.151680e+03 1.563256e-02 9.844890e-01 9.922142e-02
1.151690e+03 1.563297e-02 9.844886e-01 9.922140e-02
1.151700e+03 1.563338e-02 9.844882e-01 9.922138e-02
1.151710e+03 1.563378e-02 9.844878e-01 9.922136e-02
1.151720e+03 1.563419e-02 9.844874e-01 9.922134e-02
1.151730e+03 1.563460e-02 9.844870e-01 9.922132e-02
1.151740e+03 1.563501e-02 9.844866e-01 9.922130e-02
1.151750e+03 1.563541e-02 9.844862e-01 9.922128e-02
1.151760e+03 1.563582e-02 9.844858e-01 9.922126e-02
1.151770e+03 1.563623e-02 9.844854e-01 9.922124e-02
1.151780e+03 1.563664e-02 9.844850e-01 9.922122e-02
1.151790e+03 1.563704e-02 9.844846e-01 9.922120e-02
1.151800e+03 1.563745e-02 9.844842e-01 9.922118e-02
1.151810e+03 1.563786e-02 9.844838e-01 9.922116e-02
1.151820e+03 1.563826e-02 9.844834e-01 9.922114e-02
1.151830e+03 1.563867e-02 9.844830e-01 9.922112e-02
1.151840e+03 1.563908e-02 9.844826e-01 9.922110e-02
1.151850e+03 1.563949e-02 9.844822e-01 9.922108e-02
1.151860e+03 1.563989e-02 9.844818e-01 9.922105e-02
1.151870e+03 1.564030e-02 9.844814e-01 9.922103e-02
1.151880e+03 1.564071e-02 9.844810e-01 9.922101e-02
1.151890e+03 1.564112e-02 9.844806e-01 9.922099e-02
1.151900e+03 1.564152e-02 9.844802e-01 9.922097e-02
1.151910e+03 1.564193e-02 9.844798e-01 9.922095e-02
1.151920e+03 1.564234e-02 9.844794e-01 9.922093e-02
1.151930e+03 1.564275e-02 9.844790e-01 9.922091e-02
1.151940e+03 1.564315e-02 9.844786e-01 9.922089e-02
1.151950e+03 1.564356e-02 9.844782e-01 9.922087e-02
1.151960e+03 1.564397e-02 9.844778e-01 9.922085e-02
1.151970e+03 1.564438e-02 9.844774e-01 9.922083e-02
1.151980e+03 1.564478e-02 9.844770e-01 9.922081e-02
1.151990e+03 1.564519e-02 9.844766e-01 9.922079e-02
1.152000e+03 1.564560e-02 9.844762e-01 9.922077e-02
1.152010e+03 1.564600e-02 9.844758e-01 9.922075e-02
1.152020e+03 1.564641e-02 9.844754e-01 9.922073e-02
1.152030e+03 1.564682e-02 9.844750e-01 9.922071e-02
1.152040e+03 1.564723e-02 9.844746e-01 9.922069e-02
1.152050e+03 1.564763e-02 9.844742e-01 9.922067e-02
1.152060e+03 1.564804e-02 9.844738e-01 9.922065e-02
1.152070e+03 1.564845e-02 9.844734e-01 9.922063e-02
1.152080e+03 1.564886e-02 9.844729e-01 9.922061e-02
1.152090e+03 1.564926e-02 9.844725e-01 9.922059e-02
1.152100e+03 1.564967e-02 9.844721e-01 9.922057e-02
1.152110e+03 1.565008e-02 9.844717e-01 9.922055e-02
1.152120e+03 1.565049e-02 9.844713e-01 9.922053e-02
1.152130e+03 1.565089e-02 9.844709e-01 9.922051e-02
1.152140e+03 1.565130e-02 9.844705e-01 9.922049e-02
1.152150e+03 1.565171e-02 9.844701e-01 9.922047e-02
1.152160e+03 1.565212e-02 9.844697e-01 9.922045e-02
1.152170e+03 1.565252e-02 9.844693e-01 9.922043e-02
1.152180e+03 1.565293e-02 9.844689e-01 9.922041e-02
1.152190e+03 1.565334e-02 9.844685e-01 9.922039e-02
1.152200e+03 1.565375e-02 9.844681e-01 9.922037e-02
1.152210e+03 1.565416e-02 9.844677e-01 9.922035e-02
1.152220e+03 1.565456e-02 9.844673e-01 9.922033e-02
1.152230e+03 1.565497e-02 9.844669e-01 9.922031e-02
1.152240e+03 1.565538e-02 9.844665e-01 9.922029e-02
1.152250e+03 1.565579e-02 9.844661e-01 9.922027e-02
1.152260e+03 1.565619e-02 9.844657e-01 9.922025e-02
1.152270e+03 1.565660e-02 9.844653e-01 9.922023e-02
1.152280e+03 1.565701e-02 9.844649e-01 9.922021e-02
1.152290e+03 1.565742e-02 9.844645e-01 9.922019e-02
1.152300e+03 1.565782e-02 9.844641e-01 9.922017e-02
1.152310e+03 1.565823e-02 9.844637e-01 9.922015e-02
1.152320e+03 1.565864e-02 9.844633e-01 9.922012e-02
1.152330e+03 1.565905e-02 9.844629e-01 9.922010e-02
1.152340e+03 1.565945e-02 9.844625e-01 9.922008e-02
1.152350e+03 1.565986e-02 9.844621e-01 9.922006e-02
1.152360e+03 1.566027e-02 9.844617e-01 9.922004e-02
1.152370e+03 1.566068e-02 9.844613e-01 9.922002e-02
1.152380e+03 1.566109e-02 9.844609e-01 9.922000e-02
1.152390e+03 1.566149e-02 9.844605e-01 9.921998e-02
1.152400e+03 1.566190e-02 9.844601e-01 9.921996e-02
1.152410e+03 1.566231e-02 9.844597e-01 9.921994e-02
1.152420e+03 1.566272e-02 9.844593e-01 9.921992e-02
1.152430e+03 1.566312e-02 9.844589e-01 9.921990e-02
1.152440e+03 1.566353e-02 9.844585e-01 9.921988e-02
1.152450e+03 1.566394e-02 9.844581e-01 9.921986e-02
1.152460e+03 1.566435e-02 9.844577e-01 9.921984e-02
1.152470e+03 1.566475e-02 9.844573e-01 9.921982e-02
1.152480e+03 1.566516e-02 9.844569e-01 9.921980e-02
1.152490e+03 1.566557e-02 9.844565e-01 9.921978e-02
1.152500e+03 1.566598e-02 9.844561e-01 9.921976e-02
1.152510e+03 1.566639e-02 9.844557e-01 9.921974e-02
1.152520e+03 1.566679e-02 9.844553e-01 9.921972e-02
1.152530e+03 1.566720e-02 9.844549e-01 9.921970e-02
1.152540e+03 1.566761e-02 9.844545e-01 9.921968e-02
1.152550e+03 1.566802e-02 9.844541e-01 9.921966e-02
1.152560e+03 1.566843e-02 9.844537e-01 9.921964e-02
1.152570e+03 1.566883e-02 9.844533e-01 9.921962e-02
1.152580e+03 1.566924e-02 9.844529e-01 9.921960e-02
1.152590e+03 1.566965e-02 9.844525e-01 9.921958e-02
1.152600e+03 1.567006e-02 9.844521e-01 9.921956e-02
1.152610e+03 1.567046e-02 9.844517e-01 9.921954e-02
1.152620e+03 1.567087e-02 9.844513e-01 9.921952e-02
1.152630e+03 1.567128e-02 9.844509e-01 9.921950e-02
1.152640e+03 1.567169e-02 9.844505e-01 9.921948e-02
1.152650e+03 1.567210e-02 9.844501e-01 9.921946e-02
1.152660e+03 1.567250e-02 9.844497e-01 9.921944e-02
1.152670e+03 1.567291e-02 9.844493e-01 9.921942e-02
1.152680e+03 1.567332e-02 9.844489e-01 9.921940e-02
1.152690e+03 1.567373e-02 9.844485e-01 9.921938e-02
1.152700e+03 1.567414e-02 9.844481e-01 9.921936e-02
1.152710e+03 1.567454e-02 9.844477e-01 9.921934e-02
1.152720e+03 1.567495e-02 9.844473e-01 9.921932e-02
1.152730e+03 1.567536e-02 9.844469e-01 9.921930e-02
1.152740e+03 1.567577e-02 9.844465e-01 9.921928e-02
1.152750e+03 1.567618e-02 9.844461e-01 9.921926e-02
1.152760e+03 1.567658e-02 9.844457e-01 9.921923e-02
1.152770e+03 1.567946e-02 9.844428e-01 9.921909e-02
1.152780e+03 1.567987e-02 9.844424e-01 9.921907e-02
1.152790e+03 1.568028e-02 9.844420e-01 9.921905e-02
1.152800e+03 1.568068e-02 9.844416e-01 9.921903e-02
1.152810e+03 1.568109e-02 9.844412e-01 9.921901e-02
1.152820e+03 1.568150e-02 9.844408e-01 9.921899e-02
1.152830e+03 1.568191e-02 9.844404e-01 9.921897e-02
1.152840e+03 1.568232e-02 9.844400e-01 9.921895e-02
1.152850e+03 1.568272e-02 9.844396e-01 9.921893e-02
1.152860e+03 1.568313e-02 9.844392e-01 9.921891e-02
1.152870e+03 1.568354e-02 9.844388e-01 9.921889e-02
1.152880e+03 1.568395e-02 9.844384e-01 9.921887e-02
1.152890e+03 1.568436e-02 9.844380e-01 9.921885e-02
1.152900e+03 1.568477e-02 9.844376e-01 9.921883e-02
1.152910e+03 1.568517e-02 9.844372e-01 9.921881e-02
1.152920e+03 1.568558e-02 9.844368e-01 9.921879e-02
1.152930e+03 1.568599e-02 9.844364e-01 9.921877e-02
1.152940e+03 1.568640e-02 9.844360e-01 9.921875e-02
1.152950e+03 1.568681e-02 9.844356e-01 9.921873e-02
1.152960e+03 1.568721e-02 9.844352e-01 9.921871e-02
1.152970e+03 1.568762e-02 9.844348e-01 9.921869e-02
1.152980e+03 1.568803e-02 9.844344e-01 9.921867e-02
1.152990e+03 1.568844e-02 9.844340e-01 9.921865e-02
1.153000e+03 1.568885e-02 9.844336e-01 9.921863e-02
1.153010e+03 1.568926e-02 9.844332e-01 9.921861e-02
1.153020e+03 1.568966e-02 9.844328e-01 9.921859e-02
1.153030e+03 1.569007e-02 9.844324e-01 9.921857e-02
1.153040e+03 1.569048e-02 9.844320e-01 9.921855e-02
1.153050e+03 1.569089e-02 9.844316e-01 9.921853e-02
1.153060e+03 1.569130e-02 9.844312e-01 9.921850e-02
1.153070e+03 1.569170e-02 9.844308e-01 9.921848e-02
1.153080e+03 1.569211e-02 9.844304e-01 9.921846e-02
1.153090e+03 1.569252e-02 9.844300e-01 9.921844e-02
1.153100e+03 1.569293e-02 9.844296e-01 9.921842e-02
1.153110e+03 1.569334e-02 9.844292e-01 9.921840e-02
1.153120e+03 1.569375e-02 9.844288e-01 9.921838e-02
1.153130e+03 1.569415e-02 9.844284e-01 9.921836e-02
1.153140e+03 1.569456e-02 9.844280e-01 9.921834e-02
1.153150e+03 1.569497e-02 9.844276e-01 9.921832e-02
1.153160e+03 1.569538e-02 9.844272e-01 9.921830e-02
1.153170e+03 1.569579e-02 9.844267e-01 9.921828e-02
1.153180e+03 1.569620e-02 9.844263e-01 9.921826e-02
1.153190e+03 1.569660e-02 9.844259e-01 9.921824e-02
1.153200e+03 1.569701e-02 9.844255e-01 9.921822e-02
1.153210e+03 1.569742e-02 9.844251e-01 9.921820e-02
1.153220e+03 1.569783e-02 9.844247e-01 9.921818e-02
1.153230e+03 1.569824e-02 9.844243e-01 9.921816e-02
1.153240e+03 1.569865e-02 9.844239e-01 9.921814e-02
1.153250e+03 1.569905e-02 9.844235e-01 9.921812e-02
1.153260e+03 1.569946e-02 9.844231e-01 9.921810e-02
1.153270e+03 1.569987e-02 9.844227e-01 9.921808e-02
1.153280e+03 1.570028e-02 9.844223e-01 9.921806e-02
1.153290e+03 1.570069e-02 9.844219e-01 9.921804e-02
1.153300e+03 1.570110e-02 9.844215e-01 9.921802e-02
1.153310e+03 1.570151e-02 9.844211e-01 9.921800e-02
1.153320e+03 1.570191e-02 9.844207e-01 9.921798e-02
1.153330e+03 1.570232e-02 9.844203e-01 9.921796e-02
1.153340e+03 1.570273e-02 9.844199e-01 9.921794e-02
1.153350e+03 1.570314e-02 9.844195e-01 9.921792e-02
1.153360e+03 1.570355e-02 9.844191e-01 9.921790e-02
1.153370e+03 1.570396e-02 9.844187e-01 9.921788e-02
1.153380e+03 1.570436e-02 9.844183e-01 9.921786e-02
1.153390e+03 1.570477e-02 9.844179e-01 9.921784e-02
1.153400e+03 1.570765e-02 9.844151e-01 9.921769e-02
1.153410e+03 1.570806e-02 9.844147e-01 9.921767e-02
1.153420e+03 1.570847e-02 9.844143e-01 9.921765e-02
1.153430e+03 1.570888e-02 9.844139e-01 9.921763e-02
1.153440e+03 1.570928e-02 9.844135e-01 9.921761e-02
1.153450e+03 1.570969e-02 9.844131e-01 9.921759e-02
1.153460e+03 1.571010e-02 9.844127e-01 9.921757e-02
1.153470e+03 1.571051e-02 9.844123e-01 9.921755e-02
1.153480e+03 1.571092e-02 9.844119e-01 9.921753e-02
1.153490e+03 1.571133e-02 9.844115e-01 9.921751e-02
1.153500e+03 1.571174e-02 9.844110e-01 9.921749e-02
1.153510e+03 1.571214e-02 9.844106e-01 9.921747e-02
1.153520e+03 1.571255e-02 9.844102e-01 9.921745e-02
1.153530e+03 1.571296e-02 9.844098e-01 9.921743e-02
1.153540e+03 1.571337e-02 9.844094e-01 9.921741e-02
1.153550e+03 1.571378e-02 9.844090e-01 9.921739e-02
1.153560e+03 1.571419e-02 9.844086e-01 9.921737e-02
1.153570e+03 1.571460e-02 9.844082e-01 9.921735e-02
1.153580e+03 1.571501e-02 9.844078e-01 9.921733e-02
1.153590e+03 1.571541e-02 9.844074e-01 9.921731e-02
1.153600e+03 1.571582e-02 9.844070e-01 9.921729e-02
1.153610e+03 1.571623e-02 9.844066e-01 9.921727e-02
1.153620e+03 1.571664e-02 9.844062e-01 9.921725e-02
1.153630e+03 1.571705e-02 9.844058e-01 9.921723e-02
1.153640e+03 1.571746e-02 9.844054e-01 9.921721e-02
1.153650e+03 1.571787e-02 9.844050e-01 9.921719e-02
1.153660e+03 1.571828e-02 9.844046e-01 9.921717e-02
1.153670e+03 1.571868e-02 9.844042e-01 9.921715e-02
1.153680e+03 1.571909e-02 9.844038e-01 9.921713e-02
1.153690e+03 1.571950e-02 9.844034e-01 9.921711e-02
1.153700e+03 1.571991e-02 9.844030e-01 9.921709e-02
1.153710e+03 1.572032e-02 9.844026e-01 9.921707e-02
1.153720e+03 1.572073e-02 9.844022e-01 9.921704e-02
1.153730e+03 1.572114e-02 9.844018e-01 9.921702e-02
1.153740e+03 1.572155e-02 9.844014e-01 9.921700e-02
1.153750e+03 1.572195e-02 9.844010e-01 9.921698e-02
1.153760e+03 1.572236e-02 9.844006e-01 9.921696e-02
1.153770e+03 1.572277e-02 9.844002e-01 9.921694e-02
1.153780e+03 1.572318e-02 9.843998e-01 9.921692e-02
1.153790e+03 1.572359e-02 9.843994e-01 9.921690e-02
1.153800e+03 1.572400e-02 9.843990e-01 9.921688e-02
1.153810e+03 1.572441e-02 9.843986e-01 9.921686e-02
1.153820e+03 1.572482e-02 9.843982e-01 9.921684e-02
